Intensity,Average Distance,Min Distance,Max Distance
0.001,0.291890675212264,0.2622302770942221,0.32846974137386586
0.002,0.5636891853540371,0.5040289593805962,0.6304051297974285
0.003,0.8160929650218328,0.7305619766035254,0.9153763029409241
0.004,1.044046988783955,0.9458072883840825,1.1535591000805225
0.005,1.2473493226380885,1.1132621081230312,1.3947784941524874
0.006,1.4170744075138686,1.2661094383146505,1.566027818227251
0.007,1.54826473835563,1.4003497165171754,1.751332519996457
0.008,1.6548518280424331,1.4884050940532059,1.8213393047578181
0.009000000000000001,1.7561737964580368,1.580173976791236,1.9398137301859373
0.010000000000000002,1.854144924204319,1.6320743762812253,2.0237317561930936
0.011,1.9763057799348793,1.7536453083662162,2.208727141037884
0.012,2.1115855732988114,1.883326028814046,2.3431458485780188
0.013000000000000001,2.2593565350161473,1.988147062382395,2.6085530264449672
0.014000000000000002,2.4185174733938037,2.1597045198705698,2.739184928202598
0.015,2.5719263456437917,2.2663705118866386,2.9840754951482866
0.016,2.7351329062954877,2.4134073582754234,3.1220210145068483
0.017,2.8854538609839095,2.5534613595644533,3.3248717026333012
0.018000000000000002,3.0384991994351958,2.6561675470923616,3.436793276443485
0.019000000000000003,3.201638200219855,2.697659874824692,3.586547504478553
0.02,3.3507123974392563,2.9006625968584867,3.7828684029408324
0.021,3.5043862204355634,3.0992598497223387,3.9307255436313753
0.022000000000000002,3.662498733319579,3.2316411814605157,4.1388744480854145
0.023,3.8246471270571756,3.3661410918748977,4.321543576218751
0.024,3.988983214418528,3.4804653134328563,4.581108696775846
0.025,4.138209694566551,3.610982636887508,4.642759989873905
0.026000000000000002,4.3156241703039235,3.778098313571579,4.858497852740039
0.027000000000000003,4.470104526972661,3.776928326588643,5.069704648347881
0.028,4.625386168221818,3.9919910360602944,5.267283485926305
0.029,4.77627107777562,4.173905592103808,5.481932430832848
0.030000000000000002,4.952073101605713,4.201089992900657,5.577768370148617
0.031,5.115168206556955,4.5539482108784854,5.760050240516682
0.032,5.262359898360535,4.532628279006388,5.9508660371032045
0.033,5.434197322002971,4.640580508404878,6.185980811586415
0.034,5.582862661699053,4.8795030218541,6.310338172686373
0.035,5.7478257378524065,5.0025328795997215,6.574926636022772
0.036000000000000004,5.90975579873008,5.179334673848028,6.642089389105709
0.037000000000000005,6.066886814353763,5.197236461233883,6.9925629200376775
0.038,6.234065342328755,5.581066658002958,7.052698433002314
0.039,6.393304295487504,5.548046426583518,7.242984887892038
0.04,6.563118096746558,5.843920861048837,7.335833910496512
0.041,6.708559418359275,5.977851812043122,7.629541790772584
0.042,6.888736152029159,6.15845519413707,7.839480406146428
0.043000000000000003,7.043081308279332,6.036285451879479,7.969355128607116
0.044000000000000004,7.207032462226585,6.371860000817221,8.20950245909851
0.045,7.381618120046338,6.38782953959017,8.441398498466913
0.046,7.5428329092333914,6.67785603795092,8.457838824187784
0.047,7.7023058124537815,6.727940261387813,8.788710020407965
0.048,7.849413353730188,6.597306033245629,8.80492997130709
0.049,7.996416433399605,6.934590312024632,9.011200233424242
0.05,8.188772316160014,7.107462983659597,9.446964950762109
0.051000000000000004,8.336850627071357,7.3024188384814455,9.307024980267897
0.052000000000000005,8.49870323024755,7.595924185527731,9.524663200313606
0.053000000000000005,8.645334866300612,7.623625174282418,9.820239434040337
0.054,8.80328550400712,7.7994373165656175,9.831978370820345
0.055,9.000535308980155,7.845173581633762,10.275294138679051
0.056,9.148301026281509,8.048522600594033,10.442407656363361
0.057,9.322585581126015,8.109820929602625,10.616479991846111
0.058,9.44425887113241,8.23084825347348,10.801219875285302
0.059000000000000004,9.629979657161716,8.01847147688103,10.88325202662275
0.060000000000000005,9.766700413690586,8.518062158760301,11.089949936002
0.061,9.951572039340094,8.596212886126708,11.302347149304428
0.062,10.117323785203352,9.011797667236934,11.323088914427476
0.063,10.26107476806624,8.877704461951831,11.659247494698748
0.064,10.419490919340403,9.35854200842318,11.90482609030948
0.065,10.583570595282712,9.373031101363262,11.891818671755953
0.066,10.76935393541836,9.473513817086873,12.598821314166452
0.067,10.908750181075382,9.604866347818406,12.613131978420695
0.068,11.106600330870588,9.721400634255518,12.57079312946722
0.069,11.253127272297748,9.839170907415852,12.811223599299595
0.07,11.403511984516433,9.696041238839854,12.87315368287775
0.07100000000000001,11.536629818989383,10.029455807968255,13.338060692560465
0.07200000000000001,11.710295876594355,10.167163311962895,13.091311490260766
0.07300000000000001,11.872442444879216,10.60609849184626,13.38718164852829
0.074,12.056986686856032,10.328102294317578,13.825407951567483
0.075,12.209332989865747,10.74352158636151,13.91120328884453
0.076,12.34614772356513,10.877293739259931,13.99608611612615
0.077,12.517226658615138,11.032560793235078,14.120421028304957
0.078,12.677685343295718,10.924036686389366,14.253508584162933
0.079,12.8385395086932,11.313931379522792,14.532192019598677
0.08,13.005003865627742,11.269729890339564,15.209967115191407
0.081,13.180404039538926,11.367220617231888,15.297913013913973
0.082,13.343372325792338,11.468554299869947,15.329566631756935
0.083,13.470031135864195,11.835569169850638,15.101089821332126
0.084,13.63790178749508,11.369462847415262,15.584256682896237
0.085,13.815494022408615,11.731352096595252,15.714190232717309
0.08600000000000001,13.942611606858001,12.234818235088095,15.991750890997036
0.08700000000000001,14.133477247194488,12.461827481219734,15.725211679875253
0.08800000000000001,14.256759666116162,12.646970656154,15.928535988596048
0.089,14.429925784528178,12.664412641353778,16.457237045590595
0.09,14.55238036800761,13.031643369356493,16.430571241394013
0.091,14.728130751391577,12.371776039166475,16.677413126020994
0.092,14.88371469165062,13.057514410814024,16.787095715797058
0.093,15.087056983174731,13.231791990729931,17.00951887552215
0.094,15.223645251868945,13.070398091967336,17.28377859662476
0.095,15.379012409661375,13.258927785177805,17.167059111718018
0.096,15.569280838054409,13.455096610324038,17.71126253636692
0.097,15.686553465386874,13.745768010069668,18.355947660495517
0.098,15.866359497736841,14.138800787471242,17.840464066723516
0.099,16.01223113387083,13.993293828738379,18.25604007454089
0.1,16.17946860858601,14.479906251082404,18.112037779227883
0.101,16.33110245822098,14.530278790832375,18.508105596930722
0.10200000000000001,16.495983858923108,14.169849053517312,18.62450617459434
0.10300000000000001,16.680034766319757,14.615308785329464,19.036326325407938
0.10400000000000001,16.809576197400805,14.156541021560523,18.91711821885145
0.10500000000000001,16.933288427183157,14.695209605539167,19.04980729865616
0.106,17.146694533802865,15.169147333323735,19.722708106475626
0.107,17.294832404583453,15.365058280535369,19.648766629037308
0.108,17.46204932634085,15.04223562948789,19.661024781407622
0.109,17.662643854026552,15.296365600945778,20.665677775010966
0.11,17.78050225786794,15.609593930510925,19.732539934823983
0.111,17.91337467163247,15.848556017076978,19.903860249709666
0.112,18.121306119626798,15.685641120742684,20.043619360295295
0.113,18.285047644827753,16.155600071943354,20.714762189008766
0.114,18.429261417623085,16.425053613511068,20.594193425842715
0.115,18.548085456830513,16.09455999862236,20.985141796566282
0.116,18.75382859776117,16.402731167226023,21.120802209406214
0.117,18.87875420016914,16.54706267217751,21.424407358886825
0.11800000000000001,19.052831309982096,16.833204908200393,21.409821924032844
0.11900000000000001,19.207095431584193,16.507993422340405,21.53241840424877
0.12000000000000001,19.349942723840346,17.07310000427879,23.001346508445632
0.121,19.541448373184437,16.873639219303683,22.154999656254727
0.122,19.672548498530006,17.481722677275997,21.7746887495564
0.123,19.843416750430194,17.15340427810586,22.473065197416513
0.124,20.00825697513728,17.219575206884155,22.71766038577093
0.125,20.124822855608024,17.6277005431785,22.53520546172704
0.126,20.27783731570034,17.729296817490017,22.80379387085883
0.127,20.44126557702099,17.559611838487946,23.455772797884283
0.128,20.6064704946417,18.12131710030214,23.57255701325971
0.129,20.800676955680323,18.519764018620283,23.765008567061603
0.13,20.95279289280069,18.67325435852839,24.075122395010396
0.131,21.13880467765806,17.52587729281001,24.000947783315873
0.132,21.26687757789813,18.815302185703032,23.96127736052227
0.133,21.376361625688414,18.474727629079176,24.371468119638816
0.134,21.573311627371783,18.79686728808759,25.064738278767003
0.135,21.717870865483054,19.306962403781377,24.472840652367616
0.136,21.874678816261635,19.21842606895507,24.345187159274218
0.137,22.09167455960223,19.659131487626077,25.197808953747252
0.138,22.224982828967565,19.4388939843151,25.006797076866864
0.139,22.306854857183875,19.96102165978671,24.899549906296507
0.14,22.50828535531794,20.031482280117125,25.608177068773003
0.14100000000000001,22.67646265774852,19.73510131161336,25.440967735743858
0.14200000000000002,22.875963303375126,19.934483572853182,26.23894950876953
0.14300000000000002,22.977159637482874,20.06045541872403,25.87001974506341
0.14400000000000002,23.125832799913297,20.63469632046,26.490934340248298
0.14500000000000002,23.288372252800656,20.427161062385668,26.28813656429838
0.146,23.508422004930964,20.902256636985257,26.468405470185555
0.147,23.651342533318733,20.77416772565578,26.572328557245918
0.148,23.777624801862746,20.418624341215168,27.59417187474075
0.149,23.933973945509504,21.4476263114236,26.90054283443683
0.15,24.07491004837591,21.098458015545358,26.90615902733582
0.151,24.240532307428836,21.07737618589967,27.5245315164857
0.152,24.429495411865002,21.17390725820394,27.274761707360735
0.153,24.578275849355553,21.594341989483443,27.246111356003226
0.154,24.714931832954733,21.47537804931512,28.17913147478046
0.155,24.829948238196476,21.90976734742582,27.678628419765456
0.156,25.02632145330048,22.506455416234505,28.833681223326007
0.157,25.215034652608033,21.856880500306826,28.264897980966722
0.158,25.362892375984938,22.45708074818967,28.35286500293451
0.159,25.53646816679668,22.532879981539608,28.58593536675182
0.16,25.612198707824742,22.27187164459338,28.958568633041576
0.161,25.896105939860334,23.059239130049246,29.278801358979504
0.162,25.999096278681012,23.054312634547315,29.746762000515883
0.163,26.125462835705797,23.245022315669843,29.24361970140472
0.164,26.319031590491374,22.97741968880639,29.720149349706286
0.165,26.460037631296224,23.141597286686682,29.282488679530594
0.166,26.596978650480544,24.01311241800976,31.503063665502854
0.167,26.76027235875956,23.678706077926797,30.1374731100845
0.168,26.880331373318977,23.62345383832322,30.8941058334496
0.169,27.033772336648077,24.122359127334605,30.08941291644059
0.17,27.203885022351745,23.80808057699278,31.18712061470655
0.171,27.33024365786523,24.085058048424962,30.18501058068494
0.17200000000000001,27.576436870447782,24.90788622791021,30.907188555639873
0.17300000000000001,27.674347259123174,24.046758239522934,31.09828825453079
0.17400000000000002,27.824642694774237,24.473152564828077,31.00934637544939
0.17500000000000002,27.989430628817534,24.655935741426994,32.26318230725278
0.17600000000000002,28.24175920080534,24.708490276930434,32.222980124490796
0.177,28.377684452074405,24.53709456366776,31.620384629010275
0.178,28.48972020334508,25.349859698527997,32.23872356833807
0.179,28.654340425394174,25.24678168668775,31.94089064968786
0.18,28.822408561526302,24.703475289664517,32.26503602382683
0.181,28.92499325418968,25.43543962492658,32.72839588290387
0.182,29.073681331542268,25.872625545445707,32.949759874689214
0.183,29.290757919807092,25.986494955705904,33.093556202319995
0.184,29.49077909886135,25.923568637742683,32.76538318591758
0.185,29.5515737741367,25.70222579738653,32.95732405436289
0.186,29.70491024860117,25.851098617202165,33.47586199316708
0.187,29.888340808711867,25.99090877552661,34.27206128958621
0.188,30.01306071111694,26.78765016160008,33.852060876945245
0.189,30.211174588214647,26.84531553133819,33.9992104230327
0.19,30.34672927440788,27.194052490520313,33.90250647285829
0.191,30.56276633146489,27.269087003310233,34.52024667710934
0.192,30.656740099920484,25.790399811502034,34.75213334901886
0.193,30.8733289995171,26.6948705374918,34.87734150421471
0.194,31.017094161384158,27.211410168566232,34.701926249674045
0.195,31.095634373629846,27.68176210556003,35.25334268764766
0.196,31.27025482693564,27.87172985019897,34.977161299232044
0.197,31.44579725238003,26.386035408917518,35.523279501954214
0.198,31.58003045844972,27.66430779685393,35.37930108178346
0.199,31.771014799774214,26.7454876643606,35.64017906103611
0.2,31.927033661986385,27.615263893801,35.86396426370388
0.201,32.14390289630015,28.013974685565298,36.207667240084554
0.202,32.26156854407111,28.49816602257464,36.107055449629414
0.203,32.435357954453245,28.370190463691284,35.9030416106765
0.20400000000000001,32.531946674949765,29.089560624414972,36.47763504690951
0.20500000000000002,32.78496777785362,29.31556103493696,36.42605615935351
0.20600000000000002,32.778277141286004,28.485695436918967,38.00566745043039
0.20700000000000002,33.0380607812691,29.166763626255136,37.165273301944964
0.20800000000000002,33.18538609063865,28.589031815399505,37.72575009457882
0.20900000000000002,33.37312976000355,30.125435964552832,38.54998154908273
0.21,33.44342195738339,29.631578470534265,37.595913955048495
0.211,33.62440243510385,29.188830723597526,37.76041692942807
0.212,33.81388583887367,28.72772320055523,37.92736561759008
0.213,33.94389549943047,29.657169611317432,39.330323195616685
0.214,34.116599374243215,29.711580688499716,38.31935102364523
0.215,34.255862386552245,30.69118460923677,38.807846364840515
0.216,34.44924764020502,30.39326489505737,39.09519213717926
0.217,34.580263939850546,30.416737735224288,38.49096018199633
0.218,34.70376717184154,30.852546235007487,38.868636576169074
0.219,34.960948135213755,31.131787650315914,39.89485518487474
0.22,35.051153362630565,30.90122778808884,39.207037748496894
0.221,35.216635095881955,30.12191098740743,39.35160889502582
0.222,35.42577983459154,31.274683410381172,40.34219997558983
0.223,35.50430763612207,32.07367890595782,39.695531660639865
0.224,35.6558138986288,31.732835193961883,39.78203404541918
0.225,35.78904722695423,31.426557647917306,40.72108832674452
0.226,35.945089290168895,31.43067474764135,40.463528411249925
0.227,36.111323525873864,31.633172864683388,41.584543897894065
0.228,36.28382621614063,32.618057369125836,40.99974099009666
0.229,36.43435825595413,32.14090404139187,40.7368480090901
0.23,36.61070135686864,32.35920092264996,41.00419674173262
0.231,36.750442649806885,32.32498720411919,41.643094727685956
0.232,37.01794875976296,31.599719476020795,41.332818054514064
0.233,37.09997166198576,33.2054109383525,42.25829321164391
0.234,37.2707916212976,31.945654120592916,42.45084127078666
0.23500000000000001,37.37713846944165,32.79661916193316,42.04807950053023
0.23600000000000002,37.50598073020186,33.04312607096447,42.32104327408179
0.23700000000000002,37.68009733117647,31.491441967263338,42.17952639058817
0.23800000000000002,37.94782102188221,33.623293128385235,42.64428092400175
0.23900000000000002,37.98972903900084,33.77262488316037,43.69924235827893
0.24000000000000002,38.2043307273945,33.68262189138626,43.45687846947046
0.241,38.30611508602562,33.43819453420646,43.07213041148884
0.242,38.460214115552475,33.12720364193684,43.60517277105787
0.243,38.588604956974365,34.15858145056038,43.06727879817819
0.244,38.766003235215294,34.16121289362853,43.54953140224854
0.245,39.0143052394282,34.56075658601126,43.44366411638394
0.246,39.13451549196915,34.48737245293697,43.72945426787711
0.247,39.35376184095335,34.120859331721164,44.3522593624982
0.248,39.39846357512912,34.666844599750036,43.51334891362662
0.249,39.562064324969654,34.24284495315902,44.170795449841904
0.25,39.71424956487295,34.09670043111803,45.45986646121182
0.251,39.83530954938225,35.285769196452044,44.32127783542343
0.252,39.99698977153758,35.28173125231031,45.27216530517362
0.253,40.161344087369564,34.786736213286325,45.386958429336396
0.254,40.352148115960574,35.58576473367069,44.63002552607309
0.255,40.437994297133,34.892328579259065,45.02526597871706
0.256,40.67449769410185,35.64790064885991,45.159923499456355
0.257,40.82426391798906,35.8727945590266,45.47985282656797
0.258,40.91623119196309,36.20196078341838,46.165920687062034
0.259,41.09170468388782,35.96503578090935,46.600901788607864
0.26,41.27127897489922,36.32312160460152,45.671918374318984
0.261,41.51721281715318,36.76841579308315,47.26406982727292
0.262,41.52693217773587,36.26076325763211,46.21052129210281
0.263,41.73104766709359,36.8609486105413,47.37540166266935
0.264,41.854658347047646,37.441071251671175,46.93350172449982
0.265,41.98303034710316,37.27671970822275,47.30815354433938
0.266,42.09127942996567,37.273095966148674,47.18575077975313
0.267,42.35887622116924,38.29884206757935,47.481611130595844
0.268,42.49215194791436,37.16067342447394,47.32939222250016
0.269,42.6503839218129,37.72822928195481,47.79812661593921
0.27,42.85307227642639,37.18846903313638,47.8891670441741
0.271,43.00573066169832,36.47676565458615,48.7792280748861
0.272,43.15320713190965,38.003377418674816,49.100789521280454
0.273,43.30708218744164,37.52616648377339,47.73065962272983
0.274,43.35891494152137,38.98181708308722,49.022007606596596
0.275,43.60108634840084,37.8226879459938,49.183792616229006
0.276,43.72979785210129,38.59540359167166,48.35414724697169
0.277,43.9680113849304,39.73605293239649,49.69036644503525
0.278,44.10268174710984,39.483406817912666,50.08623868189306
0.279,44.19020866275542,38.739878781528894,49.79159509274174
0.28,44.42980881881594,38.73772454439435,49.80589660993919
0.281,44.61453288812206,39.34834458456667,50.16607755975759
0.28200000000000003,44.65581942411473,39.547854647293505,49.81015482074646
0.28300000000000003,44.81722934852416,39.41491750465729,49.87961563279836
0.28400000000000003,44.955443285142344,39.36793603411152,50.7780679095394
0.28500000000000003,45.09736955887874,39.78237023154036,50.2222208093419
0.28600000000000003,45.33715176747266,40.41499821478845,50.55062529236681
0.28700000000000003,45.44540367399355,40.5712327824282,51.31276986920513
0.28800000000000003,45.53500246396393,40.25347732642444,51.42989042094759
0.28900000000000003,45.76381270081111,39.58084204289152,51.53932200699739
0.29,45.93348918900833,41.36461375571195,51.15840268306042
0.291,45.97205601023121,39.720730732855216,51.19396200841582
0.292,46.27729106734876,40.791907282643585,53.03976812830318
0.293,46.40925177637093,41.25388324849568,53.128683595804574
0.294,46.58707614626609,40.579018403275576,51.92446346619077
0.295,46.752923422806276,41.3245209588297,52.44822428564088
0.296,46.831669954101066,40.63677019747062,53.35622978208025
0.297,46.98623644826849,41.700479408800895,52.77118881722069
0.298,47.11832538659485,40.4197216926601,53.9781174828091
0.299,47.30905216443058,41.88661670270018,52.85617845170364
0.3,47.46838630347423,42.078332159417364,53.64526006832031
0.301,47.69081444578474,42.04780158089212,54.97776371850852
0.302,47.73179034889379,41.550775251317305,53.71361756696301
