Intensity,Average Distance,Min Distance,Max Distance
0.001,0.06148824703796995,0.0181451629231554,0.1767142706142497
0.002,0.15448859056567568,0.04689468944388203,0.268880085127063
0.003,0.2458366271632031,0.10934803784140656,0.3421075395096635
0.004,0.33610149059565564,0.14236152571777144,0.47687750615560304
0.005,0.4183989887442096,0.29092631858808515,0.5294486113303681
0.006,0.4692145820194029,0.3198581585207458,0.5748420408312955
0.007,0.5218593617074455,0.40424814405464965,0.5948827207341372
0.008,0.5592708095392964,0.4594313108230048,0.6510717306165642
0.009000000000000001,0.5942718681201484,0.4413206293650618,0.6781915013700598
0.010000000000000002,0.6264549098206871,0.5231845368295448,0.7169906066475268
0.011,0.6731184870033995,0.5912900426941542,0.7593270115560558
0.012,0.7084451931650855,0.5831521562494323,0.7800685402173165
0.013000000000000001,0.7380605914122265,0.6550257300833583,0.7958311777964381
0.014000000000000002,0.7679029594312955,0.6808095662538411,0.8473982296940162
0.015,0.7919325363096706,0.7105024621608241,0.8487224787793589
0.016,0.8172922914553198,0.7124089462740483,0.8798500996744911
0.017,0.8344193316152254,0.7757972547893057,0.8975635922416421
0.018000000000000002,0.8600810562650695,0.7813541510912773,0.9139126644640502
0.019000000000000003,0.8764562995197038,0.7896823616523571,0.9275644482152083
0.02,0.8879028196641054,0.836295893278314,0.9429324154721652
0.021,0.9082163964473574,0.8523907878083704,0.9598100030910443
0.022000000000000002,0.9330833784062021,0.8722152850910404,0.9928416982596884
0.023,0.9495087187581701,0.8950755012686835,1.0028102274276494
0.024,0.9669304013888739,0.9109959291748672,1.0232800254282928
0.025,0.9787522778729482,0.9344749436896234,1.0552401975718926
0.026000000000000002,0.9897866338290625,0.9365098045195933,1.04667386626096
0.027000000000000003,0.999696285025615,0.9641646008677991,1.0408810898665124
0.028,1.0157131477333698,0.9759554118394732,1.0560011756489123
0.029,1.0259177513153614,0.9877724937114145,1.0550148155665304
0.030000000000000002,1.0331421089259616,0.9839843021516691,1.0702008882347285
0.031,1.0447419380762297,0.9843298862732363,1.0820082589924738
0.032,1.0586754640260927,1.0182199419344728,1.0991069862151823
0.033,1.0701868953283626,1.0076802793633026,1.1053969134807904
0.034,1.0794701141854934,1.0501899489215187,1.1144201458760692
0.035,1.0867224011086538,1.0331448356116895,1.1221311057268535
0.036000000000000004,1.093608664447347,1.0545468819617052,1.1280009575195995
0.037000000000000005,1.1021917843547566,1.042860774730957,1.1450461798244063
0.038,1.1088045548110712,1.0695764265296146,1.130035264836701
0.039,1.1133587048602365,1.0765992492199994,1.1434637014406839
0.04,1.1204302345604704,1.07767191809564,1.1527265705957415
0.041,1.1304971366585796,1.0973834346760634,1.1674308654171106
0.042,1.136519049549113,1.1132781707256416,1.1637878400599542
0.043000000000000003,1.1415256046189362,1.09914079201526,1.1713706188683584
0.044000000000000004,1.1503430565962465,1.1192168872331152,1.1867483001625796
0.045,1.1550738072367754,1.1192976172563622,1.183196462722681
0.046,1.163642148313487,1.1309675575272116,1.184373738416503
0.047,1.1674567472888175,1.1321682330739447,1.191431438685506
0.048,1.172941480062638,1.1363445805820827,1.1986205988791394
0.049,1.1777743877054436,1.1474509968174957,1.1967293446783298
0.05,1.1816658101130622,1.1505036671522593,1.209744526869393
0.051000000000000004,1.1842792478794046,1.149255619935374,1.212234640456597
0.052000000000000005,1.1898548786004333,1.1553675690645735,1.218410117692118
0.053000000000000005,1.1984135036070647,1.1555722635890433,1.2205257153610054
0.054,1.200976861544626,1.1555478347954915,1.2185237715207382
0.055,1.2050567194159136,1.1769206948412634,1.2314072323330174
0.056,1.2098710464231224,1.1771185577862315,1.2355503733842272
0.057,1.2144130162609894,1.1860722356294373,1.2386786223189286
0.058,1.216984098771753,1.1894740036312266,1.2388139677970382
0.059000000000000004,1.223423406298766,1.2025201040675242,1.2432920821246443
0.060000000000000005,1.2226868639655344,1.1966889594767034,1.2395289741898439
0.061,1.2264134519277041,1.1949314332553478,1.2466659036229124
0.062,1.2304061018602395,1.2057732763102245,1.2547327262137629
0.063,1.2331280932809066,1.2022503958675324,1.2573297875527636
0.064,1.2375421462906604,1.2033550782676616,1.2604026196439162
0.065,1.2394571921528716,1.2084610342793871,1.2628678013596253
0.066,1.2441399716816863,1.212807450180011,1.2649958133423962
0.067,1.2458494012448151,1.21941825612298,1.2662501185047483
0.068,1.2486204782140908,1.2156764130149968,1.2690819641180815
0.069,1.2516359128684187,1.2343920669859323,1.269361354220507
0.07,1.2532879795500278,1.2319935856978983,1.2722204355462456
0.07100000000000001,1.2572309302884053,1.235068540879249,1.2730784788385794
0.07200000000000001,1.2588355917037448,1.236624022378724,1.2749080665329247
0.07300000000000001,1.2614856706366884,1.2324223166992427,1.2847638683068194
0.074,1.2660245651061977,1.2447763802869225,1.2799019932524678
0.075,1.2672117074815221,1.2447339170629668,1.2828714713130238
0.076,1.2696182114130963,1.2467296309250595,1.2853924907421956
0.077,1.2709658338776786,1.2483006756965338,1.2939459207527477
0.078,1.2739929826934915,1.2538358928640077,1.289420587239046
0.079,1.276386742267439,1.2535665338080115,1.2931775280160998
0.08,1.2766417479739887,1.2496346902969675,1.295881804481561
0.081,1.2796468398202683,1.2627603665667662,1.301874830075954
0.082,1.2812972486001886,1.2609915091523412,1.3069916714687915
0.083,1.2835649241174278,1.2599500466225235,1.3029588255104652
0.084,1.2846669541766615,1.2623898385698302,1.3002713547823606
0.085,1.2874380842570412,1.2670823312780988,1.306650207650846
0.08600000000000001,1.288328504378927,1.2661496501727911,1.3025677456478963
0.08700000000000001,1.2916287794727115,1.274755864866538,1.3064757720368692
0.08800000000000001,1.2915335644722656,1.2715893137539018,1.3139892265222126
0.089,1.2927479420127452,1.2741206139844723,1.309556728825894
0.09,1.2947636782802954,1.272006579808812,1.3120326358665275
0.091,1.2963043397261953,1.2758966851546985,1.3102968078882526
0.092,1.2978568423631,1.2772939979496938,1.312197286254205
0.093,1.298487074643559,1.2802810619138951,1.3196998424333086
0.094,1.3005364239720607,1.2828834465606183,1.3147747565614814
0.095,1.3019872839138602,1.2834753342403693,1.315586175273652
0.096,1.3033162169994608,1.2819195881768066,1.3185890921418106
0.097,1.3042804679680304,1.2804051578545774,1.3204083323571059
0.098,1.3061650562788276,1.2816363601669436,1.3242408805993682
0.099,1.30921040188956,1.2925453426194968,1.3232948224330137
0.1,1.3084605091108452,1.2856410837569971,1.3230692545568137
0.101,1.3097206010533824,1.2922163076784392,1.3233219542686083
0.10200000000000001,1.3106688637187245,1.2926882941482223,1.3237086868900234
0.10300000000000001,1.3122050981603401,1.2812855443005247,1.3270366918827712
0.10400000000000001,1.3146112298180725,1.2938551854950124,1.3331250970256832
0.10500000000000001,1.3152624372253898,1.2998598352972857,1.3304963826567768
0.106,1.3155041887036591,1.3020805488129483,1.331734788822427
0.107,1.3163704873121669,1.296689566668242,1.3335404766593881
0.108,1.3166871060968623,1.2851593471320448,1.3321969204795199
0.109,1.3180600466981645,1.3007543040230034,1.3322325500440098
0.11,1.3198524722525982,1.293140830962791,1.3355423625472038
0.111,1.3198921021390284,1.2897944898840978,1.3344561655458176
0.112,1.3209497674830322,1.2965227669919057,1.3363672409661564
0.113,1.3214010177152338,1.3091876590389249,1.337779017178765
0.114,1.32307886356311,1.2861970203762705,1.3371142320230385
0.115,1.3241964870468255,1.3091225957428956,1.3372734636928953
0.116,1.324999474276143,1.2993222918278609,1.3383564329700446
0.117,1.326025324082807,1.2918246283145587,1.3374059668571214
0.11800000000000001,1.3262163080192706,1.3055525583995282,1.3426056557664523
0.11900000000000001,1.3278454956562553,1.315235607321682,1.3412841508736169
0.12000000000000001,1.328297839283004,1.3146087479848563,1.342717391569139
0.121,1.3276964941768212,1.2642387436878681,1.3431762597841364
0.122,1.3287670020154292,1.2961405384878961,1.3425118988558233
0.123,1.3314719100432335,1.3138003863948395,1.3441584305840055
0.124,1.3304373587705165,1.3063628482939025,1.3448032461572303
0.125,1.3313494598455207,1.3150694294745977,1.343372219863036
0.126,1.3317852044040595,1.3069946235515124,1.3441113269332272
0.127,1.3321609063880182,1.307280588796177,1.345909460798539
0.128,1.3332429058246333,1.3124582291846971,1.3441681970119923
0.129,1.333159348889387,1.3140178761828631,1.3460624500447294
0.13,1.3331761620159068,1.3166795949399803,1.3487434655280426
0.131,1.3332529096509882,1.3052763893528423,1.3500412322992883
0.132,1.3349533788913477,1.2967401255284832,1.352571939641326
0.133,1.3345237198615283,1.3180683423594224,1.34832102796145
0.134,1.3360328027130621,1.3041635930928885,1.3509491394869297
0.135,1.3373081027677869,1.314098191074621,1.3532777206602014
0.136,1.337323326449994,1.3145745514883238,1.3484760463070684
0.137,1.3383514342270586,1.3212661857614143,1.3534455198457176
0.138,1.3382164540333772,1.315783314783124,1.3541586002663655
0.139,1.337421512711727,1.3099565680485215,1.350216787439452
0.14,1.3394810431146655,1.3232367856872396,1.3519054663355177
0.14100000000000001,1.3391675530141762,1.3055994776762616,1.3522984970537966
0.14200000000000002,1.3392995856133547,1.3136043013497067,1.3536556747082742
0.14300000000000002,1.3408707599641725,1.313989969777953,1.3524207978283336
0.14400000000000002,1.339858581870548,1.3128011945150189,1.3525293115610388
0.14500000000000002,1.3422093385850666,1.3235666026800748,1.3585292665082145
0.146,1.3418448574148545,1.3250344160234668,1.3554862547904316
0.147,1.3419746210671526,1.3210759506046346,1.356325079025213
0.148,1.3421798997289967,1.317713861624583,1.354664514303791
0.149,1.3425195062588202,1.3176994744560846,1.358517858728172
0.15,1.3423426846491175,1.301373763593681,1.3583266184790397
0.151,1.343632189566981,1.3032565668305682,1.3594772597872296
0.152,1.3439446942470508,1.324988050969182,1.3600644917455564
0.153,1.3446588212352482,1.3227635038555403,1.357385150138038
0.154,1.3449266218482494,1.3035107527378267,1.360921755554089
0.155,1.3444425182205422,1.3268781784721995,1.3575035934630433
0.156,1.3444626609472292,1.3219618303880223,1.3576036517249241
0.157,1.3454318615751453,1.3255982815876055,1.3587287134757573
0.158,1.344959686185552,1.314092113423416,1.35926271797252
0.159,1.3459701847225227,1.3316904088030912,1.3580475362146354
0.16,1.346613131201959,1.3159126797852656,1.3615215526869175
0.161,1.347512320301815,1.3213020575593744,1.3604209159664578
0.162,1.3478916453369885,1.31270795743804,1.361667385145292
0.163,1.3469273372143054,1.3307099999073828,1.3619709052361786
0.164,1.3478315503700344,1.3280789355607958,1.3666025957521795
0.165,1.3473144731146653,1.3307768794893828,1.3606848404302487
0.166,1.3482985983271925,1.3228380560337794,1.3652056734678597
0.167,1.347261132341322,1.3282920175331512,1.3599743247792633
0.168,1.3491144519957061,1.327283892136443,1.3638644644702373
0.169,1.3492164422929187,1.3271919131657675,1.3662275262556314
0.17,1.34852495067794,1.3308406885986492,1.3613193077739438
0.171,1.3498905708043052,1.3327778214527228,1.3621965807788114
0.17200000000000001,1.3492176962971067,1.3303533549560247,1.3614332969352336
0.17300000000000001,1.3501517014939535,1.3184778944133355,1.365194700589763
0.17400000000000002,1.3500797310532127,1.3339097149443386,1.364754414034521
0.17500000000000002,1.350263939172801,1.3303618161406772,1.3637994031571028
0.17600000000000002,1.351819683217826,1.3340300005632364,1.3663694371616604
0.177,1.3497316045962702,1.3043767121409897,1.362126137683409
0.178,1.3496704001655342,1.3213934362179813,1.3632890498157209
0.179,1.3505056818290302,1.3297587482839528,1.3660343308584786
0.18,1.3513531184182608,1.3267795145093457,1.363832319014808
0.181,1.350979282564382,1.3305101252767897,1.3621112333598382
0.182,1.3510964135726136,1.3373450928752586,1.3662602184164554
0.183,1.3513509153031587,1.3336324196227358,1.3647999778121476
0.184,1.350590269608024,1.3227856340217696,1.3633196972496784
0.185,1.3511534232131088,1.3323301652971211,1.3655029693465246
0.186,1.3523573987584951,1.3259013020644397,1.3633238527751357
0.187,1.3518105362885529,1.337279679391364,1.3650571250011787
0.188,1.3505953131488857,1.3374057199538254,1.3626777083893309
0.189,1.3523131012996845,1.3286897399986701,1.3666368682723298
0.19,1.3517301694447292,1.3314231970103574,1.365134407086163
0.191,1.3534521802910902,1.3372494706781255,1.3639581258216893
0.192,1.3521238625291219,1.3314723775032637,1.366883338253647
0.193,1.3521486811990033,1.3241225797401148,1.3681723680342825
0.194,1.3518268659712953,1.3257541793247853,1.3664813323268556
0.195,1.3529772060641674,1.3246332331092086,1.369189639210221
0.196,1.3533284738169868,1.3338556947682993,1.3680607637166207
0.197,1.3519333876952186,1.3227348595222532,1.3656107240820732
0.198,1.3526831039692764,1.3295001123092274,1.3651312926717412
0.199,1.3525396255855742,1.3296851747569984,1.3674939885110662
0.2,1.3524506822411455,1.3262637622552123,1.3694794892308821
0.201,1.3521698670645315,1.3323039853330407,1.3666553769723673
0.202,1.3538229715324246,1.3345987367916066,1.3644170682799281
0.203,1.35444111740926,1.3354977875584604,1.3701489260796493
0.20400000000000001,1.353679414396602,1.3333519171967576,1.370659835543324
0.20500000000000002,1.3540680428293037,1.331953082134597,1.367587521927231
0.20600000000000002,1.3536293930828793,1.3322697531669772,1.3684413563239417
0.20700000000000002,1.352230781845084,1.3206624436523258,1.3673483320326716
0.20800000000000002,1.3538384717642307,1.3278905228032531,1.368651505086841
0.20900000000000002,1.3546291638588284,1.3265439571138784,1.3695225356206515
0.21,1.3540969449439404,1.3409357536612032,1.3668937104625052
0.211,1.3547119120300255,1.3375940273475626,1.3698763354579095
0.212,1.3550672646928879,1.3236776788180589,1.3706112544343494
0.213,1.3539533242759803,1.327106585613638,1.3651309252581931
0.214,1.3543122810967063,1.3322635313970035,1.3658715476151646
0.215,1.3533460101593213,1.3322388481963832,1.3648546471142011
0.216,1.3532971492201977,1.324991315610785,1.367679993234423
0.217,1.3538650723483747,1.3366580654964733,1.3659398234020765
0.218,1.3552282098691566,1.3402261396154254,1.371622261891083
0.219,1.3531845878323117,1.3317299660969033,1.3677108462028231
0.22,1.353525223566913,1.3238312913276618,1.369897155663803
0.221,1.3531995573139874,1.3278274613323906,1.3680195380201825
0.222,1.3531131627523936,1.3299550881089803,1.369030628701875
0.223,1.3539315420349818,1.337060932077851,1.368684950663482
0.224,1.3542901952493878,1.3256203920514784,1.366471960773457
0.225,1.354263747292264,1.3393270127876182,1.3767877827785142
0.226,1.3546355856373822,1.3314174463503405,1.3684287692743307
0.227,1.3523405056657187,1.3282449983948663,1.365604691453276
0.228,1.3547366410620052,1.3371684342268655,1.3693381942609588
0.229,1.3537877725441678,1.3134980073845173,1.3671871502921367
0.23,1.3548864595062289,1.3277225574987133,1.3724554566380394
0.231,1.3536483163903794,1.3215825314388072,1.3660805333139492
0.232,1.3545789092180922,1.3397231832707928,1.3702596444733395
0.233,1.3535669660988616,1.3210915486669395,1.3668593988893027
0.234,1.3545399282661492,1.3133341351477024,1.3689137248502832
0.23500000000000001,1.3540449747708094,1.3394813779370682,1.3672927081905728
0.23600000000000002,1.3532894836023117,1.3294521578569305,1.37110658799108
0.23700000000000002,1.3536929083921694,1.324410657920416,1.369668322781514
0.23800000000000002,1.353240496891972,1.3258325710014491,1.3667037788824639
0.23900000000000002,1.3540348597557679,1.3334163358344318,1.3704435381526692
0.24000000000000002,1.3535810214566382,1.3313311428798353,1.3695031534836957
0.241,1.3545810382035606,1.3320912671296545,1.3673165924915722
0.242,1.3551173860325882,1.3389982202650463,1.3686806989195006
0.243,1.3535837083612803,1.3189218616277194,1.3669818662136837
0.244,1.3534832348671872,1.3229774781368158,1.3706345960237638
0.245,1.3528851312933006,1.3365410954193215,1.368013977993855
0.246,1.35387269042512,1.3313350312543644,1.3701277124726055
0.247,1.3546472199766353,1.330974371474789,1.3715175405421394
0.248,1.3531657876989829,1.3277601463319444,1.3674249419018103
0.249,1.3535068925870926,1.330706195329382,1.3675664006013974
0.25,1.3536105164322894,1.3294672328882011,1.3682296472365287
0.251,1.3538378467323227,1.3230477114547041,1.3691006071253513
0.252,1.3507769363092377,1.3230938372666532,1.3677595789189194
0.253,1.3538016311799657,1.3303429536577607,1.3654774441689108
0.254,1.3519996606153293,1.3328761117312062,1.3684605643638363
0.255,1.3521198477665275,1.3363328233911422,1.3694970532762296
0.256,1.3527086666169128,1.328411162619316,1.369912314446797
0.257,1.3537847445327262,1.3287374948035766,1.3720477621498028
0.258,1.3526348625576758,1.324301859850221,1.3681215602015104
0.259,1.3523386970819045,1.3259167815742139,1.3674043525416193
0.26,1.352476890834747,1.3312400953490002,1.368316706929933
0.261,1.351989576144689,1.3312594616244855,1.3679648830475173
0.262,1.352778887055947,1.3314046786139357,1.3663832927867179
0.263,1.3523364465352679,1.335582718776252,1.3703431877138685
0.264,1.3520601195326956,1.334290772789709,1.3678548976148395
0.265,1.3519001395133978,1.3219002091467276,1.3672795918094514
0.266,1.3511003929756158,1.3317298314389632,1.3663857562338522
0.267,1.351410317714351,1.3326919681081697,1.369385057537175
0.268,1.351506767296308,1.3234345012152524,1.3667928031591299
0.269,1.3517930866408483,1.3319598058243816,1.3667802884564881
0.27,1.3518638100872704,1.3110895045308024,1.3653126678022645
0.271,1.350641400849109,1.326430482026629,1.3629693651593695
0.272,1.3513947583298906,1.3323161910369772,1.3672604248490237
0.273,1.3506872970658212,1.326046158116225,1.3663079874757205
0.274,1.3512348856935856,1.3336595057205012,1.3721383532082343
0.275,1.3512391541313176,1.3324554569457963,1.3649959853718598
0.276,1.3508684982144754,1.3299799517555906,1.3634062624149828
0.277,1.350872057904364,1.3263526409632893,1.3657712159685511
0.278,1.3515130262638737,1.333011793436129,1.366391421917401
0.279,1.3508380824526867,1.3293004076947939,1.3687917889747228
0.28,1.3503436862302,1.3318213974245632,1.3689445885428468
0.281,1.3498392417480707,1.3260174825719329,1.3645717452004982
0.28200000000000003,1.349147027023607,1.3224594387890443,1.3664796382246103
0.28300000000000003,1.3490221781224738,1.317149872662039,1.370078135107973
0.28400000000000003,1.3480799969200867,1.3219568730354119,1.3650703008387624
0.28500000000000003,1.350932581169497,1.3322190995231102,1.3648410518866132
0.28600000000000003,1.3503187639815062,1.3303528307649513,1.364788271612435
0.28700000000000003,1.3497565059600725,1.3288307323715596,1.3654771323998085
0.28800000000000003,1.350776679073932,1.3308511455993064,1.3684078664529584
0.28900000000000003,1.348431272470682,1.3171734611057688,1.361538996333677
0.29,1.3479593924534623,1.3209123661801383,1.3637808896809642
0.291,1.3481065652394326,1.3197212407378627,1.3642971983684269
0.292,1.348137558835171,1.3250631034148705,1.3653557587314031
0.293,1.3481511363979712,1.3327451806290624,1.363188967614591
0.294,1.347358849859117,1.3256134899557201,1.3654385457723635
0.295,1.3469521641321254,1.3303525618084608,1.3614738096315204
0.296,1.3484283137290334,1.3271644381154268,1.364224878965698
0.297,1.3475820276118333,1.3180537115733781,1.3649280531175607
0.298,1.3488579789235757,1.3292066129245697,1.3632399631134622
0.299,1.3464366276991475,1.3203871988997247,1.3606223956023837
0.3,1.3480046603678502,1.3238823705205431,1.3600166339160886
0.301,1.346835795531532,1.323979049520856,1.3697144898847535
0.302,1.3463900567930138,1.3225055826794825,1.361016508907715
0.303,1.3468539247839915,1.3171593042590088,1.3609582603529946
0.304,1.348048197832743,1.3207551357759517,1.362974654789635
0.305,1.3461552495881537,1.3204708224134942,1.3614229421351909
