Intensity,Average Distance,Min Distance,Max Distance
0.001,3.478822734953979,3.4318160263560613,3.533837674098298
0.002,3.2127883543002818,3.1568711374672866,3.2763177111371076
0.003,3.0020167489860325,2.936510990963178,3.066992093414043
0.004,2.82620647489569,2.7235810894838814,2.8951706384565767
0.005,2.6723015226793865,2.6028392126557676,2.763490520852954
0.006,2.538346692679128,2.4364915583964875,2.6302418937251484
0.007,2.4206075953992796,2.33587047924788,2.5050975459545355
0.008,2.3188634495681266,2.210575638473464,2.4343845339923242
0.009000000000000001,2.226449275916313,2.1423681759996165,2.3185220006495477
0.010000000000000002,2.1449521587031297,2.0408148260895524,2.260107437015346
0.011,2.0719227498833725,1.9706513262323555,2.1817055634337614
0.012,2.0040325881653804,1.8985078919322143,2.1046883974125445
0.013000000000000001,1.939312816937596,1.8448822756701815,2.0430558941737065
0.014000000000000002,1.8842304562156387,1.7808088701535794,1.9852462370438433
0.015,1.831477695418716,1.7397364677530307,1.9318033536778096
0.016,1.7839564150655518,1.678076915463219,1.8842235996182994
0.017,1.735916750949262,1.6491855572793161,1.8320585168788739
0.018000000000000002,1.6928951163481984,1.6029573570745104,1.7973969149514697
0.019000000000000003,1.6514418947054526,1.560490521786626,1.7486274123547325
0.02,1.6138981277928608,1.538318245819339,1.7283792932087452
0.021,1.5752135284478468,1.4854299348274185,1.687424019358065
0.022000000000000002,1.5422375500516563,1.4474776989037013,1.6393295050753758
0.023,1.5088995628801471,1.4156139272486175,1.6226256175535871
0.024,1.4786272785658685,1.377418901924698,1.5828140295178432
0.025,1.4485490546434798,1.3529171210374553,1.5429793555073563
0.026000000000000002,1.4169441497214013,1.3157284413970451,1.5404427186736211
0.027000000000000003,1.3905956680498397,1.291191505061641,1.5173332919385718
0.028,1.3635354358108243,1.2668707015703706,1.4673834147664109
0.029,1.3391717411616697,1.2447355233155557,1.456226236017641
0.030000000000000002,1.3149734332917515,1.2101862578822367,1.4312191615375167
0.031,1.2914602019313839,1.1988183987236884,1.3990780860619068
0.032,1.2691197129636544,1.175302208221281,1.3760736973439265
0.033,1.2454490083328884,1.1499958989253347,1.3576602832663593
0.034,1.2249443070354968,1.137875861443462,1.3300182472638933
0.035,1.2045368115783799,1.0968589890606584,1.3243563980591224
0.036000000000000004,1.1842570268142179,1.0905593416813657,1.2976228993735348
0.037000000000000005,1.167474957694637,1.0554436553676836,1.2807806807540887
0.038,1.1472464550961432,1.0273420950037289,1.240443270235505
0.039,1.1274653400291184,1.0514391049615934,1.2401022253209333
0.04,1.1105471844298658,0.9978031936440899,1.2627873863660724
0.041,1.0936456351391142,0.9644438996859219,1.2222853181483555
0.042,1.075255422726193,0.9738241825691656,1.1750425458494296
0.043000000000000003,1.0621022001001825,0.9723568904061013,1.1555187116981491
0.044000000000000004,1.0446146880927984,0.9573089174227887,1.1565164080743782
0.045,1.0296070349678712,0.9203113426428904,1.1447336673280746
0.046,1.0141926899588085,0.9109070201208684,1.1337862143612072
0.047,1.0020962753288363,0.9121863497070941,1.1113339698208855
0.048,0.9863285849530575,0.8901372962986374,1.0944937070719667
0.049,0.9734686899954038,0.8751773278845296,1.0774734019098675
0.05,0.9584258110448844,0.8500239724252285,1.0533726877657523
0.051000000000000004,0.9446190524248488,0.8628166205524757,1.0698318342079403
0.052000000000000005,0.9335178142731426,0.8302908569746248,1.047708922156482
0.053000000000000005,0.9202963937682151,0.8277739379075681,1.0338019305516508
0.054,0.9077509587988728,0.8156274440410911,1.0139608174373476
0.055,0.8961514823077616,0.8040374935448913,1.0043464845577357
0.056,0.8835854709894365,0.7951311998126309,1.0153840385940613
0.057,0.8720290064509094,0.7881069550067124,0.9912780235338943
0.058,0.8618969743529629,0.7807225327068861,0.9793492190344488
0.059000000000000004,0.850855992106824,0.7645845253543411,0.9656721790106797
0.060000000000000005,0.8387228884354462,0.7458733047364956,0.9497814484320828
0.061,0.8282029149567318,0.7374315585066311,0.9448827537412767
0.062,0.8176306505401769,0.715883237314451,0.9237996872907703
0.063,0.8084707522790001,0.7145663663073996,0.9174943046837463
0.064,0.7982969648406799,0.7053656999097786,0.924442558287295
0.065,0.786650083629703,0.6887194389015461,0.9002979457709781
0.066,0.7790084236306505,0.6855900815231948,0.8858555495990812
0.067,0.7670696489444063,0.6798534682031248,0.8528727661695439
0.068,0.7581245635512763,0.6545745362136461,0.8712786634629186
0.069,0.750097129663801,0.6474791134858267,0.868797393826926
0.07,0.7414221102781238,0.6400112217082166,0.8643855144493329
0.07100000000000001,0.7304955817450418,0.6284940338384879,0.8338430251269862
0.07200000000000001,0.7238850587120312,0.6251958528590533,0.838691642274922
0.07300000000000001,0.7149139509359204,0.623091880067161,0.9024864606667773
0.074,0.7074516103075743,0.6124970919527133,0.8237863170613138
0.075,0.6982466837982417,0.6013621618561014,0.8254127167581125
0.076,0.6914368324296233,0.5949817305940313,0.8157621637421983
0.077,0.6827352780561816,0.5887072731535388,0.8119586925268623
0.078,0.6719801884521324,0.5757529496968892,0.7794354410729039
0.079,0.6655405680137904,0.5642531739243144,0.7675615537702227
0.08,0.65926976763875,0.5715538357052012,0.7693151675761523
0.081,0.6509397253497418,0.5082675942337169,0.7569339266142796
0.082,0.6431268902569954,0.5405523027892354,0.7448227982841598
0.083,0.6384798023233046,0.5292069747589658,0.7468288379397392
0.084,0.6288387282321767,0.5432711935952472,0.7532060428667506
0.085,0.6238912545449301,0.5181770050073253,0.7330072878811715
0.08600000000000001,0.6143545288027411,0.520035176845854,0.7220046840658361
0.08700000000000001,0.6087833061321998,0.5129238685106854,0.7041825880643042
0.08800000000000001,0.6027551911752886,0.4913913308534039,0.7433619802063811
0.089,0.5944443077002448,0.49256772435240004,0.7195812329782298
0.09,0.590076004711455,0.46853906259976164,0.7325994899853971
0.091,0.5834673717911583,0.49234835671137755,0.6874564494815187
0.092,0.5749755813946542,0.45514536378733705,0.68788446107314
0.093,0.5711551593738777,0.47316444974138827,0.7055140734775485
0.094,0.5657283891451728,0.4494533548195072,0.6842114487681323
0.095,0.5557527887829812,0.45120821878411643,0.6856137359725922
0.096,0.5545675328091119,0.4499188377776746,0.6870966028163186
0.097,0.547078401509827,0.45694251772075,0.7023474228484816
0.098,0.5413581850081972,0.442019727202569,0.6482027899717506
0.099,0.5336732174362544,0.4399899728552463,0.6658134649884495
0.1,0.5284092688505289,0.4336403800727018,0.6453733409809082
0.101,0.5208128576452136,0.42768475716266696,0.6637305693748381
0.10200000000000001,0.5186609550459903,0.40950163967437003,0.6347299418854364
0.10300000000000001,0.5124153550311271,0.41391334621086484,0.6351535765022156
0.10400000000000001,0.5065606646428368,0.39463814960585886,0.6148706037313723
0.10500000000000001,0.5031535737570881,0.3917312836534048,0.6446403966282173
0.106,0.4968364517895933,0.3995527835400221,0.6293421498664866
0.107,0.49152292610052084,0.374111213401922,0.6238654391892879
0.108,0.4869528525388406,0.3598359038011205,0.5808784509659373
0.109,0.47993447720665994,0.3714321211125977,0.5801997813901836
0.11,0.4774758038096296,0.36561247589024193,0.6065793259670205
0.111,0.47257236616858567,0.3546408057565964,0.6009772214220104
0.112,0.46940454170141127,0.3343604012543273,0.572112204520554
0.113,0.46414603250762343,0.36412066876454974,0.5857264899443009
0.114,0.4594885418298123,0.3494046001797537,0.5648547435409728
0.115,0.45534375574050084,0.35268524431980497,0.5732180487213854
0.116,0.45282274764790703,0.36025771680519547,0.5706536255719254
0.117,0.44918038430762125,0.34931803720376653,0.5668339119266608
0.11800000000000001,0.44208197703661584,0.3414070807138101,0.5739154672083804
0.11900000000000001,0.43880248395993954,0.32726675298150143,0.5599677619634016
0.12000000000000001,0.43493404978716554,0.33363861594331246,0.5438154835701172
0.121,0.43284346565626197,0.33200857696318486,0.565795658675357
0.122,0.4280858922743669,0.29903688411521223,0.6025999668124267
0.123,0.42391177415241493,0.2922192626793083,0.530646838334417
0.124,0.4222714790354444,0.3259542271415552,0.5404529978455965
0.125,0.4171301447389142,0.3138368844181665,0.5439036515659859
0.126,0.41239146701594537,0.30966123543849244,0.5238438959396614
0.127,0.40771866495558856,0.2987214450231024,0.5289445816298146
0.128,0.40776585010606503,0.30222856669144704,0.5384423928834168
0.129,0.4046367783645072,0.3030941871231687,0.5114707422217273
0.13,0.39902673622997076,0.28051829976637066,0.5306818026896059
0.131,0.39609210121221594,0.29970711439208975,0.5098355701954969
0.132,0.3930997345257678,0.2659200834434978,0.5218449365260209
0.133,0.3896846958396752,0.2729495474258474,0.49457185070580323
0.134,0.3886253461623148,0.27964959134515555,0.5118986438217217
0.135,0.3825511876735432,0.2723282436821979,0.48879819138961045
0.136,0.3808266636779672,0.2677746301614694,0.4957583011025144
0.137,0.37790789522054036,0.2518320947897563,0.49380390041443123
0.138,0.3750333243891354,0.2626607778318437,0.49699542384837025
0.139,0.3744965222282328,0.26938964591953285,0.5122119978721122
0.14,0.3683495111710957,0.2570104090308072,0.4863594385542087
0.14100000000000001,0.36511965025286075,0.2667601648715747,0.48438842904725954
0.14200000000000002,0.3620852120599468,0.2586360834757917,0.49211156650621435
0.14300000000000002,0.36058081518021057,0.24726184907354298,0.5125720141372088
0.14400000000000002,0.3558648661866813,0.23477264418956167,0.47135907547709044
0.14500000000000002,0.35470095125451745,0.24528766281399417,0.4620043090695929
0.146,0.35130105948036683,0.24884392884109596,0.4817362360118991
0.147,0.3495342247624459,0.2358214953996156,0.47846406723142154
0.148,0.3456876044690922,0.24886482442115065,0.4519986362802295
0.149,0.3454263203773853,0.2272996542786494,0.4747279901033177
0.15,0.3415776233579734,0.2445011671131514,0.463048419020184
0.151,0.3362295234865717,0.21022779053343177,0.4507604996958947
0.152,0.3379024834318342,0.20968177918493325,0.45485902897552233
0.153,0.3349301119399097,0.2265106430355206,0.4404379260768323
0.154,0.3318295758603491,0.18720243800656844,0.4604063621443739
0.155,0.3282083728831328,0.19162386189396274,0.46792047120214697
0.156,0.33070865312997755,0.228327342596105,0.4734782668909632
0.157,0.32741742893661324,0.22842518997075745,0.455377666875715
0.158,0.32298532213643516,0.21573396348588592,0.4507156181573362
0.159,0.3217177657646655,0.22335700992210317,0.4233870305228695
0.16,0.3184857112841805,0.20281658479398246,0.45046562843832527
0.161,0.31791367588638697,0.1848421870671504,0.4620516929404186
0.162,0.3128427823157498,0.2141001895409005,0.42596447970165574
0.163,0.31376168884014993,0.20328720027147673,0.4658328791923201
0.164,0.3101309660849556,0.2033712226931299,0.41903254449020233
0.165,0.3093465815239612,0.18530371412416935,0.45897297388933955
0.166,0.308029844989382,0.19727217948190878,0.4504304636769949
0.167,0.307063355202984,0.20749765392201036,0.43324163701699225
0.168,0.3053300775653847,0.19296436107225867,0.44110308104792706
0.169,0.30004558875920917,0.19369660720014048,0.4268565110628124
0.17,0.29755032414859683,0.18827074701937185,0.41382541923018
0.171,0.2979340820848333,0.19503582811119058,0.4122251523806666
0.17200000000000001,0.2954364647650555,0.1980292219983779,0.4072491447048443
0.17300000000000001,0.29405017660831334,0.1754677980537931,0.4226952836412754
0.17400000000000002,0.29429912325698404,0.19392062344591743,0.4408393539886135
0.17500000000000002,0.288330507884389,0.18103588903541556,0.4179657984350995
0.17600000000000002,0.28885637581121604,0.15701276302270717,0.4562480769411672
0.177,0.2862983140046565,0.16824049668749197,0.41462188633714137
0.178,0.28437730791226207,0.187296025810455,0.39265937880927426
0.179,0.28076239202396563,0.18345783418600714,0.38993355629589743
0.18,0.28070553074058724,0.1802394236629139,0.395516731902426
0.181,0.27974421383210757,0.16827457194184614,0.3810309191550747
0.182,0.276970462981047,0.17626044394527351,0.3880308272827184
0.183,0.2752536520077481,0.1706500048777011,0.4146895054193762
0.184,0.2751585511014316,0.16233123426264662,0.39999386633126566
0.185,0.27374884392186644,0.16888037454158855,0.40991711084263693
0.186,0.2698199139382185,0.16341869944631338,0.3864503442235687
0.187,0.269032469952631,0.1661218609373316,0.3863504051829696
0.188,0.2682165067337936,0.1734833534678426,0.38765150088131506
0.189,0.2656271011839813,0.17519398725591184,0.3616981146453262
0.19,0.2639281221163424,0.17212780688616292,0.38643720696353734
0.191,0.26449398244963707,0.1695485939696324,0.37921868036049
0.192,0.26325262474843475,0.14765991092002295,0.37594562232621254
0.193,0.25934982669208684,0.14873631568631396,0.36671600164030504
0.194,0.2592849250180625,0.1477834899021504,0.3795375754193393
0.195,0.2576711902281281,0.15273300860246763,0.3707961490092275
0.196,0.25561839169829237,0.1429463539413538,0.36390329130119525
0.197,0.2549057121618641,0.1497817746540857,0.4040689952733967
0.198,0.2526421823728278,0.12904689271313696,0.3616944417059633
0.199,0.2513740875864236,0.13649855995408444,0.36303270531452103
0.2,0.24952865945061853,0.13032387354660901,0.3744185001144409
0.201,0.24939043264719363,0.1421470621395562,0.36532049524556864
0.202,0.24868381231550293,0.13859441178725973,0.42210667356078657
0.203,0.24597977851677283,0.1419998321378193,0.3610649847480101
0.20400000000000001,0.246081867643691,0.12355108659247271,0.38695481619964767
0.20500000000000002,0.2433729010423874,0.1446334045846207,0.3699418770334484
0.20600000000000002,0.2428040651323782,0.12727396435836802,0.35711920467058356
0.20700000000000002,0.242066217082756,0.12326433615782939,0.3648429262894295
0.20800000000000002,0.24082485286928987,0.12798791669295628,0.3474258018165628
0.20900000000000002,0.23840220841813528,0.13988963225981,0.38100487589944354
0.21,0.2373918066359979,0.15200244681502362,0.3580889383945429
0.211,0.235696530565914,0.13857816861859096,0.3345298893552364
0.212,0.2350046735591547,0.11741326175542444,0.3360069199874296
0.213,0.23414938873646565,0.11379172483145972,0.34479977826476205
0.214,0.23424283417652175,0.13310173497584188,0.3661966881456955
0.215,0.23128539989468028,0.10938543413488411,0.34039562727698325
0.216,0.22895619950441368,0.13824370223959992,0.34839714429899793
0.217,0.22807058011498946,0.1250569381987221,0.37591469820179935
0.218,0.22728102063037994,0.1014706841601285,0.3511224959120103
0.219,0.22728615994035417,0.10704815251830269,0.35338491351751866
0.22,0.22577125982695892,0.12966158361462732,0.3273123496767978
0.221,0.22590334272607743,0.11415315712938856,0.3516051363013455
0.222,0.22395205073556382,0.12873085865973088,0.3673596552023959
0.223,0.2228193466205469,0.10810466925075524,0.3344361214091629
0.224,0.22093392493026126,0.0987327136387286,0.3211018795434093
0.225,0.22063240186635807,0.11598655811259029,0.330960994774248
0.226,0.21768406685937647,0.09860357557195787,0.3319391237267153
0.227,0.2186684276353855,0.11619804242257814,0.3409562096920995
0.228,0.2168332244886204,0.07312378316838064,0.360590294710577
0.229,0.2154862943669503,0.10468334606445673,0.3242495100258198
0.23,0.2144172022001719,0.11235172100048896,0.3245530233132268
0.231,0.2126640837533933,0.12044545170796628,0.31336859993794786
0.232,0.21177298855865065,0.11904210353556977,0.3198212650795478
0.233,0.21064093514373122,0.10308262577006744,0.31737772124426655
0.234,0.21114642122844557,0.08733571560001874,0.3735984135658583
0.23500000000000001,0.20769298987659754,0.10957798997365664,0.3263542406577793
0.23600000000000002,0.20845663749500185,0.10602833207846984,0.3163223095888661
0.23700000000000002,0.20710483708276395,0.09505498442971838,0.31266034484401484
0.23800000000000002,0.206682760471444,0.07560344186586931,0.3237070734209464
0.23900000000000002,0.2045642323355665,0.10191524645501371,0.31016706317323806
0.24000000000000002,0.2059671288273124,0.07516563424959077,0.3283172921471973
0.241,0.20471631258906153,0.10508055634462732,0.3443380949020627
0.242,0.2026698515639896,0.09065153002486159,0.337232321350168
0.243,0.20019850874490655,0.10367700121209289,0.3554856163866038
0.244,0.202023716924566,0.09118577846018905,0.30676278495810916
0.245,0.19968734681239708,0.10475227327275771,0.2998010735407828
0.246,0.1985132185596932,0.09899345829724027,0.31738141635428807
0.247,0.19796389068620088,0.08982646594945543,0.3137006652661798
0.248,0.19870291790374472,0.08718419866894589,0.3038543750141631
0.249,0.1981439870698425,0.0750177044490048,0.3085040897836899
0.25,0.1976498065368886,0.10979787318115264,0.3315362672445996
0.251,0.19517833134338683,0.09975415491745387,0.31660693700592457
0.252,0.19319221067308912,0.08306416954813045,0.30550614146219157
0.253,0.19376249861527436,0.07671944354411497,0.3129520133078909
0.254,0.1944764824589735,0.09213761664031406,0.3172766177455584
0.255,0.18933970646713538,0.0860603482192559,0.30999906709328506
0.256,0.19123026277094513,0.0985208538164235,0.30554669264155976
0.257,0.18859903488824306,0.08208999803761419,0.30114626910795206
0.258,0.19034266288941962,0.0941344581118404,0.303280521744421
0.259,0.1894801855889445,0.08751571611721598,0.31466188117290805
0.26,0.1867215234823284,0.0952014361385265,0.29253640680812865
0.261,0.18919308495810913,0.09020871842243494,0.3280561100179771
0.262,0.18722269378662165,0.09301580581837676,0.29698836396617523
0.263,0.18199947151363077,0.08092448005021247,0.31024114288160654
0.264,0.18530192717172647,0.08071406502532152,0.31296011179561845
0.265,0.18365027477618373,0.07298562576951273,0.2859047111272126
0.266,0.18236940629844045,0.06716669065903602,0.27736072039245396
0.267,0.18426418219193377,0.08763967496176939,0.30236350753162533
0.268,0.1824361287577695,0.08357383998953694,0.3288959250430983
0.269,0.18100054456199222,0.0914098564507464,0.3095027530877559
0.27,0.18000472963462186,0.08252800055764276,0.3097356397623683
0.271,0.18056253556453616,0.07376412187881698,0.3166277386491849
0.272,0.178454974350701,0.0702166227825387,0.3374992648819237
0.273,0.1790810783218732,0.07533210814695135,0.29956709224438605
0.274,0.1761440304557288,0.08176243244786185,0.3060010842928076
0.275,0.1751427834969142,0.06944909724701454,0.28070146484896785
0.276,0.17604975341943702,0.07340267212025609,0.28921360718725975
0.277,0.1756471406203637,0.08747694258752325,0.2959745839410477
0.278,0.17473844724949059,0.06869385221473223,0.30270007727047776
0.279,0.1733381939527964,0.07640726098375161,0.30025128162105386
0.28,0.17194383505499694,0.0872384847886023,0.29421882042872305
0.281,0.17201512104999891,0.07370627520882422,0.2815955407656858
0.28200000000000003,0.1728910112402719,0.06600659133434394,0.2829610444893156
0.28300000000000003,0.17078643155852774,0.06753011734385073,0.28777598390655257
0.28400000000000003,0.1681511046127457,0.06007265503508563,0.2986253604336717
0.28500000000000003,0.16718862888658265,0.06883645986994757,0.29055940746327913
0.28600000000000003,0.1694817981331187,0.055310647288823844,0.3504417108060194
0.28700000000000003,0.16778491865239567,0.07675183776398686,0.27984018672203703
0.28800000000000003,0.16664647407871422,0.07530391430391781,0.29337136779899353
0.28900000000000003,0.1666619695127137,0.07931063133110072,0.27824610130717264
0.29,0.16402339115689868,0.07836864791952358,0.26067393122439064
