Intensity,Average Distance,Min Distance,Max Distance
0.001,3.706984640716918,3.659227501863125,3.7645012882619113
0.002,3.3728952458401906,3.303739853890183,3.457505586795622
0.003,3.1205667801504844,3.0141769222111527,3.2014501290524704
0.004,2.9118420456577265,2.8075808583020074,3.0021601795562014
0.005,2.7402016169526133,2.635880930089845,2.852838903776771
0.006,2.592450191840436,2.493416782147384,2.7046897365917477
0.007,2.4674755918341837,2.3662062093235265,2.583953079130275
0.008,2.358510505130541,2.240144846224267,2.4930899716420485
0.009000000000000001,2.266070393068011,2.1575194917876717,2.423751417027057
0.010000000000000002,2.1821237109459752,2.0910010695562833,2.290308338279165
0.011,2.107677981315807,2.0052962618816172,2.2195765858390692
0.012,2.0388950084433213,1.9480581836416504,2.145807166917406
0.013000000000000001,1.973499983100335,1.8693214603806987,2.0888266144675622
0.014000000000000002,1.9135948801476552,1.7716330713148385,2.0395144584511473
0.015,1.8615183003960742,1.7553529398010634,2.001127819917028
0.016,1.8101987870514162,1.7075673606632424,1.9594117086073966
0.017,1.7639221690331623,1.6615024513448118,1.865911559951091
0.018000000000000002,1.7201613740663593,1.5959824929615047,1.8263582342235365
0.019000000000000003,1.677840120927193,1.561547067331324,1.7956844927360258
0.02,1.639052195096819,1.5384618570435022,1.7581159064612222
0.021,1.6030846281632334,1.4744893264156533,1.7216415385631638
0.022000000000000002,1.5676381444199419,1.4376682715345983,1.6883368274061241
0.023,1.5339679557971049,1.4211185377939426,1.6330084850260982
0.024,1.5019161583736296,1.3920775307834687,1.613399004834915
0.025,1.4705165149602422,1.359377810697144,1.612054965695454
0.026000000000000002,1.444227838967197,1.3364260854604888,1.5569344564172658
0.027000000000000003,1.4115367880055478,1.3079317913505877,1.522823644138358
0.028,1.3882498866345458,1.256258102543708,1.526680913672044
0.029,1.3602482814623316,1.2456197572801493,1.4726208646467267
0.030000000000000002,1.3379476093715117,1.2225801626238857,1.4586183917811022
0.031,1.310521352802702,1.1976099706402312,1.4822775942197834
0.032,1.2883107112812258,1.1905884105184108,1.4112315201991805
0.033,1.2673933218712252,1.154270793343049,1.378077992435807
0.034,1.2450668828105698,1.1399047497075743,1.3652863086901585
0.035,1.2255145764810704,1.103695158271436,1.360997071527824
0.036000000000000004,1.2041280325499601,1.092437658317301,1.3229911151982487
0.037000000000000005,1.1831907705429843,1.0827091738301293,1.2898481183415074
0.038,1.167101812835836,1.062122710172945,1.2715325598622296
0.039,1.148992311419333,1.0243480176849342,1.2642469422999878
0.04,1.131253080697663,1.0308017111309948,1.2442178390730763
0.041,1.1106804261354095,0.9934804943075832,1.2698623633088801
0.042,1.0946752723379019,0.9761813512703705,1.2193896413419973
0.043000000000000003,1.0784595552121683,0.96076771541314,1.210043548177035
0.044000000000000004,1.062369316254205,0.9474433390201447,1.1776888993067436
0.045,1.0471187643210382,0.9331569966499043,1.1943939697846306
0.046,1.0339374479525296,0.9110381720704641,1.1578879411748613
0.047,1.0185941841510249,0.8881743802878752,1.1364955322184245
0.048,1.0008609016449863,0.8864395798089966,1.1446893103183537
0.049,0.989442724540625,0.8794372652684386,1.1297742559794264
0.05,0.9756536055360223,0.8756040457537906,1.1148837770263946
0.051000000000000004,0.9613826970572242,0.856060358422654,1.089905318616954
0.052000000000000005,0.9468871415713285,0.8253745734244595,1.094854230181825
0.053000000000000005,0.9376200706926361,0.8267918158387029,1.052727136117661
0.054,0.9233098920666593,0.8107824803565462,1.0418557411142872
0.055,0.913856273969621,0.7845213903340684,1.038615576079288
0.056,0.8974570357823849,0.7954730191579125,1.0210154993028815
0.057,0.8872562731061193,0.7815004173909297,1.0057173682002944
0.058,0.8770055544984059,0.7433977641027285,1.0339485048367885
0.059000000000000004,0.8671446673144483,0.7486206015703343,0.9712976988633977
0.060000000000000005,0.855065381855596,0.7537062173565414,1.012267516817217
0.061,0.8418882298822102,0.7337856082233216,0.9657579189779146
0.062,0.8340286937105832,0.726391146992365,0.9796893759020366
0.063,0.8232686843549331,0.7024613337309997,0.9558207119722528
0.064,0.8136792864287559,0.6747592307695061,0.9378105429181338
0.065,0.8014658901305534,0.6972270600008592,0.9247632357111688
0.066,0.7911249224645177,0.6659135523278965,0.9287502602001938
0.067,0.7843366413899967,0.6780727189723477,0.9168312846727122
0.068,0.7736003882163722,0.6456491654008385,0.8999335389595493
0.069,0.7650582885249212,0.6554222848682101,0.9054652367824105
0.07,0.7556093464219216,0.6258205409959401,0.8687043098828373
0.07100000000000001,0.7443736342944587,0.6380517332436386,0.867147513348506
0.07200000000000001,0.738143128238556,0.6083809430998515,0.8964467110770782
0.07300000000000001,0.7299589156468062,0.6145290600676212,0.8728927554953962
0.074,0.7206855479346385,0.6133932517741592,0.8601922201223013
0.075,0.7114457221897871,0.60479925099381,0.833739429282844
0.076,0.702594099912038,0.5852759661059981,0.8170535742849836
0.077,0.6947080065049873,0.5784507639312668,0.860324461062389
0.078,0.6876542144760023,0.5713655354251461,0.8008281457086563
0.079,0.6789215247552951,0.560361946319456,0.8119167763448574
0.08,0.6708901929350551,0.5545302335163891,0.8028953973367923
0.081,0.6658805479752036,0.5454888802723721,0.8076459521745902
0.082,0.6572799919180675,0.5384121987617259,0.7743782891256346
0.083,0.6513947952853492,0.5405718333390364,0.7689484059189922
0.084,0.6431334574454033,0.540466970632131,0.7758989807585244
0.085,0.6360854230755463,0.5219517428816478,0.7784834490695971
0.08600000000000001,0.6286066518119978,0.4912880007262226,0.7437150845098848
0.08700000000000001,0.6198453208943795,0.4821801561122103,0.734776577039896
0.08800000000000001,0.6150591703592957,0.48876807350392637,0.7380802682626122
0.089,0.6072254037300141,0.49565114622533324,0.7249252396643611
0.09,0.6017441342047797,0.47843648385356596,0.7038958469004166
0.091,0.5958932366606668,0.4893864407459243,0.7239110186029394
0.092,0.5880332084956488,0.4709002251462109,0.7086094392825268
0.093,0.5853074066867189,0.47246636809677467,0.7095911302172717
0.094,0.576987142072841,0.45827390256825584,0.7027562360620623
0.095,0.569792291883285,0.41449488491530984,0.69636644570175
0.096,0.5621342504840113,0.45133540971568253,0.687985076659321
0.097,0.5565956925079127,0.4301853336894035,0.6831771801454241
0.098,0.5520222644575827,0.43290890719754493,0.6735042479287454
0.099,0.5483274954315955,0.44271269432649385,0.6899955321491569
0.1,0.5401856085908943,0.4384106291890961,0.6742315482471386
0.101,0.5363973139765007,0.4138346795689052,0.6774313250385253
0.10200000000000001,0.5290478651730002,0.40851903476350815,0.6605734451166603
0.10300000000000001,0.522946275287065,0.40298354721214924,0.6912938978063758
0.10400000000000001,0.5199226745739548,0.40576118424898144,0.6677835378126296
0.10500000000000001,0.5162630348152318,0.3852306397234826,0.666407710029655
0.106,0.5093335946671053,0.38521627702650063,0.6509504022187853
0.107,0.5039223333959945,0.39563883699334923,0.639636611764268
0.108,0.49678399336136,0.3854846582994895,0.6151716765634414
0.109,0.49370258228866715,0.37862131571328117,0.6707441066550808
0.11,0.49032038492416974,0.36891141376786996,0.6449075991498074
0.111,0.4851009110816037,0.36886355779946056,0.6040153100012247
0.112,0.480614608713661,0.3608917975339807,0.6184028719176569
0.113,0.4738926742738883,0.35096016044275924,0.6105433489364076
0.114,0.4729298940081693,0.3373066235936415,0.597037907780301
0.115,0.4678334378101134,0.32644479491237455,0.6196261012091608
0.116,0.4628831704998604,0.3579701862136888,0.5906396647914858
0.117,0.4588713535484503,0.33889015398511413,0.6150763006306144
0.11800000000000001,0.4546714749200621,0.32745961921301037,0.6128090706505165
0.11900000000000001,0.45116932672475535,0.3339142182302757,0.5795211895364223
0.12000000000000001,0.44657362263974903,0.32529691041465014,0.585339753233526
0.121,0.4432516900720161,0.2897369206676803,0.5643934864795686
0.122,0.43705257405124176,0.3071034878988619,0.585865314735802
0.123,0.43527503403739876,0.30686819641921304,0.5614535312337039
0.124,0.4336696034103277,0.29920988283962036,0.5876084689127175
0.125,0.42840935115216017,0.2948073091330605,0.5844152332037442
0.126,0.4237822954240442,0.29013556817976527,0.5444183729469096
0.127,0.4199568544962759,0.26776509367910517,0.5564641917288844
0.128,0.4151036039828452,0.28446365055203593,0.5779609716324816
0.129,0.4120263235251308,0.2968322900422242,0.550625241744592
0.13,0.41114898152567514,0.27615930506989583,0.564054956949462
0.131,0.40772915035556345,0.2773893478365159,0.54757722860503
0.132,0.40251534106671333,0.2807414990185113,0.5476696669168759
0.133,0.4004730253282351,0.2631800990329367,0.5638914096718719
0.134,0.3980280450513964,0.2725947738083154,0.5224101606459763
0.135,0.3952714116347897,0.27032109390775005,0.5717695509867204
0.136,0.39006969804780084,0.2729527992219327,0.5724534982078446
0.137,0.3880534151910789,0.2462728022821099,0.542512395688088
0.138,0.3871071663761547,0.25074943015967843,0.5331949992917795
0.139,0.3806648881646751,0.25819046283004266,0.5267803163218412
0.14,0.3814198363740998,0.26752533359899644,0.5067735583619317
0.14100000000000001,0.3761534627385293,0.25479484270367037,0.5131029232741646
0.14200000000000002,0.3711695328171376,0.25003861490400947,0.5044805274604003
0.14300000000000002,0.3695783582558846,0.2464407877390835,0.5364189376801249
0.14400000000000002,0.36831458972545944,0.2377803007789927,0.5122102195030238
0.14500000000000002,0.36595336475616325,0.2510126418412102,0.5038172482138679
0.146,0.3621880989597679,0.23749613018506155,0.5055887446014715
0.147,0.3594219142092115,0.23965180389833085,0.48526651273640997
0.148,0.3562089829088966,0.22727209436592233,0.5033057617463985
0.149,0.355426774343171,0.22507836020719507,0.4950031128887922
0.15,0.35554072870714754,0.18959776706686648,0.4894626110955147
0.151,0.35087561594330857,0.22530165004016567,0.487683064765843
0.152,0.34738166447045576,0.21919072408599938,0.5241688680936156
0.153,0.3477559693943202,0.22739841344289502,0.49586505315125295
0.154,0.3420520001698746,0.21889411636584244,0.471565464299625
0.155,0.34087694676298735,0.2182714009615534,0.5100799375818874
0.156,0.34077128400459666,0.21604187296186694,0.5033006798313369
0.157,0.33584591103626954,0.20476612519646586,0.46918363772366733
0.158,0.3334403795813016,0.1959292781428874,0.46697469094239397
0.159,0.33146247300828907,0.19185695471726882,0.48567340817431415
0.16,0.3294021891522215,0.1724928510388124,0.4587360499588282
0.161,0.32935121406611667,0.20238375374007722,0.47928452760616524
0.162,0.32543404241866586,0.21167310385935867,0.4889592356724455
0.163,0.3224775805245623,0.2077321880596359,0.44285884783884555
0.164,0.3179937651663963,0.20944866345129975,0.4373967690348497
0.165,0.32123192076870316,0.1793851127817434,0.4845964498650588
0.166,0.31649670224716964,0.18556007251398965,0.4455219673103019
0.167,0.31749933959302934,0.20749161912914005,0.44379930974699455
0.168,0.31218129111660337,0.18861253285083457,0.45521762453699965
0.169,0.31006619438490807,0.19788623450491682,0.4564090532057863
0.17,0.3074421476376226,0.18379356448705675,0.42474853694417414
0.171,0.30456936654011496,0.1985709549702741,0.43685926332362035
0.17200000000000001,0.30554764371533827,0.1837946087038631,0.45185915249307973
0.17300000000000001,0.303728908851069,0.1555059390928899,0.45157074088019833
0.17400000000000002,0.3017607015089861,0.18296394430125407,0.43413467456180443
0.17500000000000002,0.2991987623374699,0.1833380963962261,0.44354231923390675
0.17600000000000002,0.2984619736291005,0.1729284083495939,0.44488189601529093
0.177,0.29515981806091507,0.1893405507098862,0.45926005474308207
0.178,0.29394018141384587,0.17739990360446223,0.4283948684799932
0.179,0.2930734504717818,0.1580802055227024,0.4288374778646751
0.18,0.2891507386163448,0.16590141597769748,0.41019938893591545
0.181,0.288069254655035,0.16915343414878947,0.4164437236673795
0.182,0.2861191032483055,0.18402173674596378,0.4419635623849616
0.183,0.2862592899719103,0.15340928172897428,0.42567513718868133
0.184,0.28302600585681575,0.16418457601020497,0.4142389713068604
0.185,0.28158210047569143,0.15870243855040567,0.40658697821181367
0.186,0.280319249581776,0.1668065927721516,0.4401162510771437
0.187,0.2757882110592384,0.14068355777714903,0.4109138072691989
0.188,0.277895874217602,0.16620583455482185,0.42063083717280625
0.189,0.2776832582465334,0.1562296851385323,0.44527190649358905
0.19,0.27221218140416614,0.13487468445193196,0.39329243772615685
0.191,0.27327358104432914,0.15203649632537486,0.42112918624751794
0.192,0.27204243229975156,0.16434631181276282,0.3986387163682594
0.193,0.26851665901951094,0.13612540201830203,0.41886611379538063
0.194,0.2690287924358338,0.13997481978645343,0.40844390086869664
0.195,0.2683337178470696,0.1063066291835928,0.43078472061393835
0.196,0.26198458131417895,0.13995134125341924,0.3876131709809121
0.197,0.2632282389422968,0.13280917919575552,0.4084552700287585
0.198,0.26318759813647635,0.14384906611574833,0.4099404385359029
0.199,0.26287838043598305,0.1397583829468645,0.4379365921864702
0.2,0.2596673356039405,0.13975978375589726,0.40321213433337455
0.201,0.25734230546616826,0.1475740884260448,0.3776923665119032
0.202,0.25587616027206095,0.11683521244344686,0.4034247027323028
0.203,0.25246826175229586,0.1310988009019156,0.4017939129123369
0.20400000000000001,0.25495489043363057,0.14044717297948894,0.4157463588032253
0.20500000000000002,0.25430091839834773,0.12356590052201843,0.39741909974768364
0.20600000000000002,0.25137004196740564,0.13513860039974812,0.38424203074191965
0.20700000000000002,0.2518060645256288,0.14440841471447063,0.37675101800267363
0.20800000000000002,0.24753808159679722,0.13480811522810443,0.4139449378948328
0.20900000000000002,0.24626727080362418,0.1379232979384546,0.38460074775446085
0.21,0.24581921719043143,0.10852665161136876,0.4001769767640888
0.211,0.24437852909787516,0.10839143799126205,0.36292080469929733
0.212,0.24420873820318253,0.10505709894029591,0.3959098922122952
0.213,0.24277376001062606,0.10599880575313181,0.3649259499275064
0.214,0.2431279325959414,0.13051569240790073,0.38304498314660274
0.215,0.23899115834247106,0.10978116768225821,0.3895725892673685
0.216,0.23846514199690977,0.10337692031656553,0.3695581953503839
0.217,0.23588001640285824,0.11637472503848612,0.373778872464388
0.218,0.23657888936471613,0.12037442934078424,0.3647853182537162
0.219,0.23756101124516457,0.12257920398093836,0.36797394273457895
0.22,0.23399512385387364,0.08366096634827258,0.3668156802506366
0.221,0.23111303937030472,0.12458569394662611,0.3585545224416844
0.222,0.23028859665453408,0.10108076443565794,0.3458460594862456
0.223,0.2301410336522862,0.12582772871310244,0.37469930892947323
0.224,0.23049477985518455,0.09741133047205341,0.3783600179995985
0.225,0.2296617812667899,0.08692343071585507,0.3647671229835856
0.226,0.22926222879027747,0.11878368253744176,0.3493112545951509
0.227,0.22673896290966197,0.10908195529676323,0.376168212466947
0.228,0.225742537504477,0.10886089554686862,0.3881423597471767
0.229,0.22345467907294533,0.08505375936099435,0.38855762370792224
0.23,0.22139383813801977,0.10853249946435284,0.3807990054639281
0.231,0.22397703260267848,0.1012602101993183,0.34759075586655763
0.232,0.22020021554902666,0.11381583658877581,0.3479241948416747
0.233,0.22062797492626,0.09233149697580023,0.3705826646987722
0.234,0.2189514034488244,0.061669749791521955,0.3680716326329776
0.23500000000000001,0.216463813571657,0.07527736760131054,0.3613313091551893
0.23600000000000002,0.21630663563409816,0.09264110113406643,0.3337959003182909
0.23700000000000002,0.2137635372745358,0.10624587524349671,0.3481529055428694
0.23800000000000002,0.21469299823285592,0.10319400982749238,0.3599696696425103
0.23900000000000002,0.21488607126769785,0.09721832737621217,0.36690407065544894
0.24000000000000002,0.21357286262712769,0.09867017185309779,0.36734802874978145
0.241,0.21296853003640304,0.10284891614701053,0.3644015014353066
0.242,0.20995035423567912,0.0986927273199334,0.3267222988325025
0.243,0.20823658410044993,0.06528898661496418,0.3379282956495544
0.244,0.2087926884258096,0.09674106526414361,0.33968127696531925
0.245,0.2060555820251904,0.09231311507810469,0.3298681633181979
0.246,0.2092847108420489,0.09188742289774554,0.4074096697221048
0.247,0.20571061916483258,0.07651307365311988,0.3717450261494095
0.248,0.20585481004012518,0.06382347121161924,0.3452414086039375
0.249,0.20352360595060695,0.07093694254752281,0.34555726617038607
0.25,0.20623359950845108,0.08513268006630881,0.34741220317831845
0.251,0.2038406265514678,0.08201273182800062,0.3588267608844484
0.252,0.20187128015086814,0.03548472396178903,0.33672941941316603
0.253,0.2013456741048562,0.0823169891375013,0.33694758751135767
0.254,0.20010419706421342,0.07980170122159391,0.394087384180986
0.255,0.20010671703006028,0.08483188860247903,0.3127774190719559
0.256,0.1980579156218867,0.07535194008929169,0.36730171212377094
0.257,0.19619327064355305,0.08418663516449598,0.3198145846099165
0.258,0.19684070288130864,0.0792522794166346,0.3090588379719086
0.259,0.1942342183788638,0.07367731674691624,0.3410051883474954
0.26,0.19506387592032956,0.07757897256836754,0.32901672659870185
0.261,0.1951501169274221,0.059911933357377656,0.3243584149753125
0.262,0.19441149283395925,0.0700385666244916,0.3375663134685247
0.263,0.19493639678920835,0.0703425088231997,0.3394360239869334
0.264,0.19330717754277316,0.07658527402726722,0.3191877859614056
0.265,0.1921047419528897,0.0641362442093647,0.3462237825090493
0.266,0.19219651109582786,0.06681355631061203,0.329003378518939
0.267,0.1894618211122382,0.08751809792572995,0.3083907234753527
0.268,0.1879555670763114,0.060998410893802646,0.31510730118063046
0.269,0.187125984723965,0.07380639398797761,0.3062382957281322
0.27,0.18991703116578218,0.06869050966905288,0.3298658171106901
0.271,0.18673651858105858,0.048427328467600894,0.32707440662777687
0.272,0.1847656811161482,0.06315485598621162,0.3388437138414804
0.273,0.1834184251375556,0.0552983604947066,0.32659068103296374
0.274,0.181099579049673,0.06555065832061135,0.33307299492015874
0.275,0.18303302003718405,0.037456997583201534,0.33656906322068947
0.276,0.18704716541647992,0.07371064333610455,0.3395624465745448
0.277,0.1803013473859729,0.06656911567001256,0.3488613054354883
0.278,0.1813424726668523,0.053615170887316044,0.37456467139296956
0.279,0.18314759835850217,0.07810737112566368,0.3012343424407935
0.28,0.18301963325317894,0.07048901979380862,0.30766999559985475
0.281,0.17883272791686847,0.028856357406773725,0.3131538768910729
0.28200000000000003,0.18028689306002904,0.07032938425568513,0.316170761895441
0.28300000000000003,0.1790665827330372,0.0812465387283634,0.3180145199813533
0.28400000000000003,0.17840864033749626,0.06485975537912037,0.31181391592776286
0.28500000000000003,0.17491718895935435,0.05816203368288475,0.3129674576001098
0.28600000000000003,0.17569140273659256,0.07008268102983006,0.31018777093088357
0.28700000000000003,0.17582230181353742,0.06418302981063562,0.30286809120276237
0.28800000000000003,0.17542622053093418,0.05214518630395748,0.30652967024943667
0.28900000000000003,0.1750789033582707,0.06357965042211866,0.30626255040122574
0.29,0.17224652716517938,0.038297361136110375,0.3085442347576697
